photon energy (eV),n,k
0.09,8.72392,18.8938
0.1,8.57076,18.4077
0.11,8.40051,17.9002
0.12,8.21547,17.3749
0.13,8.018,16.8351
0.14,7.81043,16.2845
0.15,7.59509,15.7265
0.16,7.37432,15.1645
0.17,7.15045,14.6022
0.18,6.92583,14.043
0.19,6.70278,13.4903
0.2,6.48364,12.9478
0.21,6.27075,12.4189
0.22,6.06644,11.907
0.23,5.87305,11.4157
0.24,5.69291,10.9486
0.25,5.52837,10.509
0.26,5.38175,10.1005
0.27,5.25539,9.72657
0.28,5.15162,9.39073
0.29,5.07279,9.09648
0.3,5.02123,8.84729
0.31,4.86193,8.4915
0.32,4.80553,8.3158
0.33,4.74846,7.93778
0.34,4.63929,7.77596
0.35,4.57775,7.61902
0.36,4.51589,7.38396
0.37,4.46013,7.17184
0.38,4.37093,7.02292
0.39,4.32967,6.89886
0.4,4.28719,6.65607
0.41,4.21418,6.55293
0.42,4.16235,6.42593
0.43,4.1246,6.25774
0.44,4.08956,6.12832
0.45,4.03701,6.01941
0.46,4.00904,5.91732
0.47,3.97808,5.73969
0.48,3.9359,5.66865
0.49,3.91185,5.55667
0.5,3.87988,5.41262
0.51,3.86411,5.28375
0.52,3.83151,5.19353
0.53,3.82283,5.11756
0.54,3.81521,4.97095
0.55,3.79922,4.9109
0.56,3.79804,4.83631
0.57,3.79803,4.71997
0.58,3.79837,4.61225
0.59,3.80587,4.55911
0.6,3.81231,4.51439
0.61,3.81826,4.41641
0.62,3.83321,4.3758
0.63,3.84712,4.33901
0.64,3.87128,4.27207
0.65,3.89608,4.21416
0.66,3.91871,4.17954
0.67,3.93323,4.14985
0.68,3.95861,4.08442
0.69,3.9665,4.05862
0.7,3.97342,4.04007
0.71,3.98357,4.01697
0.72,3.99239,3.99034
0.73,3.97616,3.97354
0.74,3.96849,3.95724
0.75,3.94939,3.93941
0.76,3.9338,3.94033
0.77,3.91362,3.93965
0.78,3.88201,3.93884
0.79,3.85547,3.94119
0.8,3.82478,3.90756
0.81,3.80883,3.88825
0.82,3.77689,3.89025
0.83,3.7592,3.89008
0.84,3.73921,3.88976
0.85,3.71626,3.89012
0.86,3.69063,3.88985
0.87,3.67598,3.88877
0.88,3.66354,3.86889
0.89,3.63821,3.85203
0.9,3.6267,3.83935
0.91,3.61328,3.84062
0.92,3.59007,3.8381
0.93,3.56445,3.8178
0.94,3.55012,3.80005
0.95,3.53336,3.79023
0.96,3.50252,3.77869
0.97,3.48794,3.76272
0.98,3.46684,3.73258
0.99,3.4384,3.71377
1,3.41892,3.6929
1.01,3.40389,3.68996
1.02,3.39219,3.67036
1.03,3.36004,3.65408
1.04,3.34205,3.64094
1.05,3.32147,3.63281
1.06,3.30356,3.61456
1.07,3.29275,3.59361
1.08,3.27802,3.59054
1.09,3.2658,3.5499
1.1,3.24747,3.54043
1.11,3.23888,3.54219
1.12,3.22479,3.53359
1.13,3.20437,3.51507
1.14,3.18614,3.49481
1.15,3.17102,3.49096
1.16,3.16309,3.49243
1.17,3.1438,3.48184
1.18,3.13185,3.46415
1.19,3.11837,3.44395
1.2,3.10619,3.44152
1.21,3.08912,3.44216
1.22,3.07439,3.42994
1.23,3.06224,3.39657
1.24,3.03687,3.39173
1.25,3.02525,3.39229
1.26,3.01133,3.3918
1.27,2.99108,3.39125
1.28,2.97254,3.37193
1.29,2.95795,3.35535
1.3,2.94589,3.34107
1.31,2.92041,3.34267
1.32,2.90887,3.34303
1.33,2.89512,3.33579
1.34,2.87274,3.31686
1.35,2.84644,3.29707
1.36,2.82431,3.29174
1.37,2.80981,3.29276
1.38,2.78465,3.2924
1.39,2.77308,3.29039
1.4,2.75899,3.24864
1.41,2.73895,3.24258
1.42,2.72021,3.23853
1.43,2.70567,3.21907
1.44,2.69371,3.20012
1.45,2.66829,3.19193
1.46,2.65659,3.19359
1.47,2.64251,3.18779
1.48,2.62266,3.16814
1.49,2.6038,3.14823
1.5,2.58894,3.14289
1.51,2.5809,3.1265
1.52,2.56182,3.11088
1.53,2.54981,3.09357
1.54,2.53596,3.08886
1.55,2.5243,3.06866
1.56,2.50689,3.0496
1.57,2.49198,3.04271
1.58,2.48384,3.04373
1.59,2.46486,3.03833
1.6,2.45282,3.00467
1.61,2.43876,2.99288
1.62,2.42897,2.99434
1.63,2.41938,2.97323
1.64,2.40509,2.94459
1.65,2.3929,2.9433
1.66,2.37392,2.94556
1.67,2.36837,2.91782
1.68,2.36098,2.89257
1.69,2.34316,2.89485
1.7,2.33185,2.89194
1.71,2.32512,2.87155
1.72,2.3156,2.85384
1.73,2.29632,2.8436
1.74,2.29068,2.84513
1.75,2.28334,2.83825
1.76,2.26565,2.79617
1.77,2.25425,2.7943
1.78,2.24716,2.79501
1.79,2.24138,2.78048
1.8,2.22886,2.76447
1.81,2.22031,2.7454
1.82,2.20574,2.74202
1.83,2.19632,2.72138
1.84,2.18639,2.70292
1.85,2.17933,2.69494
1.86,2.17345,2.68169
1.87,2.16062,2.66534
1.88,2.15492,2.64586
1.89,2.14782,2.64465
1.9,2.14463,2.64636
1.91,2.1284,2.61332
1.92,2.12847,2.59386
1.93,2.12509,2.59585
1.94,2.112,2.59271
1.95,2.10857,2.56058
1.96,2.10885,2.54518
1.97,2.09926,2.54564
1.98,2.0893,2.54446
1.99,2.08952,2.52471
2,2.08642,2.50792
2.01,2.07324,2.49488
2.02,2.0697,2.49619
2.03,2.07002,2.49482
2.04,2.06058,2.46582
2.05,2.05053,2.44553
2.06,2.05036,2.44606
2.07,2.05076,2.44572
2.08,2.04455,2.44705
2.09,2.03835,2.43701
2.1,2.03126,2.41893
2.11,2.02969,2.39902
2.12,2.02168,2.39626
2.13,2.01433,2.39529
2.14,2.01135,2.39699
2.15,2.01195,2.359
2.16,2.00949,2.34512
2.17,2.00192,2.34674
2.18,1.99402,2.34634
2.19,1.99214,2.34596
2.2,1.98552,2.32697
2.21,1.97932,2.31066
2.22,1.97265,2.29562
2.23,1.97296,2.29717
2.24,1.9729,2.29699
2.25,1.96362,2.2959
2.26,1.95347,2.29666
2.27,1.95362,2.25717
2.28,1.95071,2.24575
2.29,1.93748,2.24655
2.3,1.93391,2.24723
2.31,1.93419,2.24751
2.32,1.93254,2.24163
2.33,1.92475,2.22223
2.34,1.91744,2.20303
2.35,1.91422,2.19624
2.36,1.9147,2.19708
2.37,1.91297,2.19716
2.38,1.89994,2.19709
2.39,1.89501,2.1718
2.4,1.89527,2.14717
2.41,1.89435,2.14744
2.42,1.88645,2.14714
2.43,1.87955,2.14731
2.44,1.8754,2.14721
2.45,1.87593,2.14747
2.46,1.87546,2.12295
2.47,1.87615,2.09751
2.48,1.86224,2.09775
2.49,1.85573,2.09732
2.5,1.85623,2.09703
2.51,1.85683,2.09858
2.52,1.85166,2.08511
2.53,1.84505,2.06823
2.54,1.83739,2.04872
2.55,1.83686,2.04804
2.56,1.83707,2.0473
2.57,1.83106,2.0471
2.58,1.82727,2.04958
2.59,1.82262,2.0236
2.6,1.81699,1.9961
2.61,1.81783,1.99859
2.62,1.81087,1.99789
2.63,1.80744,1.99777
2.64,1.80771,1.99811
2.65,1.80817,1.99445
2.66,1.80313,1.96186
2.67,1.79775,1.94759
2.68,1.79822,1.94827
2.69,1.79789,1.94763
2.7,1.79839,1.94908
2.71,1.79266,1.93503
2.72,1.78625,1.91839
2.73,1.77879,1.89903
2.74,1.77879,1.8987
2.75,1.77855,1.898
2.76,1.77863,1.89788
2.77,1.77869,1.89944
2.78,1.77866,1.88581
2.79,1.77862,1.86903
2.8,1.77865,1.84952
2.81,1.77871,1.84875
2.82,1.77864,1.84822
2.83,1.77846,1.84851
2.84,1.77903,1.84869
2.85,1.77334,1.84859
2.86,1.76689,1.84632
2.87,1.75942,1.8152
2.88,1.75936,1.79808
2.89,1.75912,1.79892
2.9,1.75922,1.79874
2.91,1.75927,1.79865
2.92,1.75923,1.79869
2.93,1.75921,1.79903
2.94,1.75924,1.79871
2.95,1.75924,1.79716
2.96,1.75922,1.7772
2.97,1.75922,1.76001
2.98,1.75924,1.74791
2.99,1.75923,1.74931
3,1.75922,1.74896
3.01,1.75923,1.74887
3.02,1.75924,1.74919
3.03,1.75922,1.74864
3.04,1.75922,1.74863
3.05,1.75924,1.72971
3.06,1.75924,1.71341
3.07,1.75921,1.6983
3.08,1.75923,1.69964
3.09,1.75928,1.69909
3.1,1.75922,1.69909
3.11,1.75905,1.69923
3.12,1.75962,1.69903
3.13,1.75413,1.69907
3.14,1.74764,1.70004
3.15,1.74008,1.69214
3.16,1.73992,1.67332
3.17,1.7397,1.65348
3.18,1.7398,1.64886
3.19,1.73985,1.64923
3.2,1.73981,1.64951
3.21,1.73979,1.64934
3.22,1.73982,1.64938
3.23,1.73982,1.64947
3.24,1.7398,1.64915
3.25,1.73981,1.64911
3.26,1.73982,1.65095
3.27,1.73981,1.63298
3.28,1.7398,1.59828
3.29,1.73981,1.60039
3.3,1.73981,1.59941
3.31,1.73981,1.5994
3.32,1.73981,1.59966
3.33,1.73981,1.59967
3.34,1.73981,1.5995
3.35,1.73981,1.59948
3.36,1.73981,1.59975
3.37,1.73981,1.59979
3.38,1.73981,1.59877
3.39,1.73981,1.60074
3.4,1.73981,1.56513
3.41,1.73981,1.54826
3.42,1.73981,1.54997
3.43,1.73981,1.55007
3.44,1.73981,1.54971
3.45,1.73981,1.54969
3.46,1.73981,1.54986
3.47,1.73981,1.54985
3.48,1.73981,1.5497
3.49,1.73981,1.54972
3.5,1.73981,1.54997
3.51,1.73981,1.54992
3.52,1.73981,1.54899
3.53,1.73981,1.55124
3.54,1.73981,1.51786
3.55,1.73981,1.49834
3.56,1.73981,1.50033
3.57,1.73981,1.50022
3.58,1.73981,1.49988
3.59,1.73981,1.49996
3.6,1.73981,1.50005
3.61,1.73981,1.49999
3.62,1.73981,1.5
3.63,1.73981,1.50003
3.64,1.73981,1.49993
3.65,1.73981,1.49998
3.66,1.73981,1.50028
3.67,1.73983,1.49979
3.68,1.73978,1.49912
3.69,1.73978,1.47958
3.7,1.7407,1.46291
3.71,1.75295,1.44919
3.72,1.75948,1.45065
3.73,1.75916,1.45024
3.74,1.75924,1.45009
3.75,1.75924,1.45022
3.76,1.75923,1.45026
3.77,1.75923,1.45019
3.78,1.75923,1.45019
3.79,1.75923,1.45023
3.8,1.75923,1.45022
3.81,1.75923,1.4502
3.82,1.75923,1.45021
3.83,1.75923,1.45022
3.84,1.75924,1.45021
3.85,1.75923,1.45021
3.86,1.75922,1.45021
3.87,1.75924,1.45021
3.88,1.75924,1.45021
3.89,1.75921,1.45021
3.9,1.75922,1.45021
3.91,1.75928,1.45021
3.92,1.75923,1.45021
3.93,1.75907,1.45021
3.94,1.75939,1.45021
3.95,1.75959,1.45021
3.96,1.7757,1.45021
3.97,1.77894,1.45021
3.98,1.77875,1.45021
3.99,1.77856,1.45021
4,1.77863,1.45021
4.01,1.77868,1.45021
4.02,1.77865,1.45021
4.03,1.77863,1.45021
4.04,1.77865,1.45021
4.05,1.77866,1.45021
4.06,1.77864,1.45021
4.07,1.77864,1.45021
4.08,1.77866,1.45021
4.09,1.77865,1.45021
4.1,1.77864,1.45021
4.11,1.77864,1.45021
4.12,1.77869,1.45021
4.13,1.77863,1.45021
4.14,1.7784,1.45021
4.15,1.76744,1.45021
4.16,1.75903,1.45021
4.17,1.75929,1.45021
4.18,1.75921,1.45021
4.19,1.75923,1.45021
4.2,1.75923,1.45021
4.21,1.75923,1.45021
4.22,1.75923,1.45021
4.23,1.75923,1.45021
4.24,1.75923,1.45021
4.25,1.75923,1.45021
4.26,1.75923,1.45021
4.27,1.75923,1.45021
4.28,1.75923,1.45021
4.29,1.75923,1.45021
4.3,1.75923,1.45021
4.31,1.75922,1.45021
4.32,1.75922,1.45021
4.33,1.75927,1.45021
4.34,1.7592,1.45021
4.35,1.75904,1.45021
4.36,1.74827,1.45021
4.37,1.73963,1.45021
4.38,1.73987,1.45021
4.39,1.73979,1.45021
4.4,1.73982,1.45021
4.41,1.73981,1.45021
4.42,1.73979,1.45021
4.43,1.73983,1.45021
4.44,1.73984,1.45021
4.45,1.73974,1.45021
4.46,1.73976,1.45021
4.47,1.7402,1.45021
4.48,1.73665,1.45021
4.49,1.72947,1.45021
4.5,1.72167,1.45021
4.51,1.72026,1.45021
4.52,1.72028,1.45021
4.53,1.72044,1.45021
4.54,1.72043,1.45021
4.55,1.72035,1.45021
4.56,1.72035,1.45021
4.57,1.72045,1.45021
4.58,1.72048,1.45021
4.59,1.72009,1.45021
4.6,1.72076,1.45021
4.61,1.70642,1.45021
4.62,1.70044,1.45021
4.63,1.70103,1.45021
4.64,1.70107,1.45021
4.65,1.70095,1.45021
4.66,1.70098,1.45021
4.67,1.701,1.45021
4.68,1.70092,1.45021
4.69,1.701,1.45021
4.7,1.70126,1.45021
4.71,1.6988,1.45021
4.72,1.69123,1.45021
4.73,1.68365,1.45021
4.74,1.68129,1.45021
4.75,1.68149,1.45021
4.76,1.68165,1.45021
4.77,1.68165,1.45021
4.78,1.68138,1.4502
4.79,1.6815,1.45021
4.8,1.67418,1.45022
4.81,1.6678,1.45021
4.82,1.66182,1.4502
4.83,1.66233,1.45022
4.84,1.66209,1.45022
4.85,1.66214,1.45019
4.86,1.66224,1.4502
4.87,1.66185,1.45025
4.88,1.66257,1.45021
4.89,1.64859,1.45014
4.9,1.64215,1.45024
4.91,1.64277,1.45035
4.92,1.64283,1.45004
4.93,1.64271,1.44974
4.94,1.64263,1.45197
4.95,1.64271,1.42955
4.96,1.64308,1.39876
4.97,1.6399,1.40118
4.98,1.6326,1.40037
4.99,1.62482,1.40025
5,1.62313,1.40046
5.01,1.62325,1.40048
5.02,1.62337,1.40038
5.03,1.62326,1.4004
5.04,1.62333,1.40045
5.05,1.62356,1.40042
5.06,1.62136,1.4004
5.07,1.6137,1.40042
5.08,1.60618,1.40043
5.09,1.60359,1.40041
5.1,1.60387,1.40041
5.11,1.60396,1.40043
5.12,1.60389,1.40042
5.13,1.60385,1.40041
5.14,1.60387,1.40042
5.15,1.60407,1.40042
5.16,1.60058,1.40042
5.17,1.58733,1.40042
5.18,1.58433,1.40042
5.19,1.58449,1.40042
5.2,1.58449,1.40042
5.21,1.58447,1.40042
5.22,1.58445,1.40042
5.23,1.58447,1.40042
5.24,1.58454,1.40042
5.25,1.58439,1.40042
5.26,1.58432,1.40042
5.27,1.57629,1.40042
5.28,1.57461,1.40042
5.29,1.57473,1.40042
5.3,1.5748,1.40042
5.31,1.57475,1.40042
5.32,1.57476,1.40041
5.33,1.57478,1.40042
5.34,1.57471,1.40043
5.35,1.5747,1.40042
5.36,1.57509,1.40041
5.37,1.57138,1.40043
5.38,1.56476,1.40042
5.39,1.56522,1.4004
5.4,1.56503,1.40042
5.41,1.56498,1.40044
5.42,1.56506,1.40041
5.43,1.56512,1.40039
5.44,1.56502,1.40046
5.45,1.56493,1.40045
5.46,1.56517,1.40033
5.47,1.56563,1.40039
5.48,1.56178,1.40072
5.49,1.55723,1.40028
5.5,1.55557,1.3992
