photon energy (eV),n,k
0.5,3.442753,0
0.52,3.444062,0
0.54,3.44488,0
0.56,3.445479,0
0.58,3.446129,0
0.6,3.4471,0
0.62,3.44904,0
0.64,3.451411,0
0.66,3.453973,0
0.68,3.456644,0
0.7,3.4595,0
0.72,3.462537,0
0.74,3.46575,0
0.76,3.469135,0
0.78,3.472688,0
0.8,3.476412,0
0.82,3.480319,0
0.84,3.484381,0
0.86,3.488588,0
0.88,3.492921,1e-006
0.9,3.497361,3.1e-005
0.92,3.501862,0.000169
0.94,3.506463,0.000354
0.96,3.511174,0.000562
0.98,3.516009,0.000778
1,3.520992,0.000999
1.02,3.52619,0.001212
1.04,3.531515,0.001415
1.06,3.536931,0.00161
1.08,3.542401,0.001787
1.1,3.547893,0.001926
1.12,3.553338,0.001982
1.14,3.55878,0.002006
1.16,3.564235,0.00202
1.18,3.569703,0.002045
1.2,3.575166,0.002101
1.22,3.58059,0.002241
1.24,3.586017,0.002419
1.26,3.591487,0.002618
1.28,3.596996,0.002825
1.3,3.6025,0.003033
1.32,3.607848,0.003216
1.34,3.613284,0.003396
1.36,3.618902,0.003583
1.38,3.624843,0.00378
1.4,3.631298,0.003987
1.42,3.638728,0.004198
1.44,3.64667,0.004426
1.46,3.654796,0.004688
1.48,3.663095,0.004982
1.5,3.671862,0.005288
1.52,3.68094,0.00561
1.54,3.687704,0.006116
1.56,3.697085,0.006634
1.58,3.705245,0.007187
1.6,3.713752,0.007719
1.62,3.720912,0.008231
1.64,3.727585,0.008769
1.66,3.736285,0.00934
1.68,3.744932,0.009938
1.7,3.752178,0.010452
1.72,3.760457,0.010861
1.74,3.768411,0.011365
1.76,3.778012,0.011911
1.78,3.78732,0.012507
1.8,3.796461,0.013035
1.82,3.805374,0.013466
1.84,3.815103,0.014041
1.86,3.825729,0.01495
1.88,3.836746,0.015719
1.9,3.84675,0.016363
1.92,3.858313,0.016782
1.94,3.870259,0.01771
1.96,3.881481,0.019537
1.98,3.89307,0.021469
2,3.90623,0.022133
2.02,3.918571,0.023358
2.04,3.931155,0.024566
2.06,3.943992,0.025738
2.08,3.957101,0.026863
2.1,3.970506,0.027945
2.12,3.98423,0.029015
2.14,3.998292,0.030131
2.16,4.012704,0.031364
2.18,4.027477,0.032777
2.2,4.042619,0.034407
2.22,4.058143,0.036251
2.24,4.074064,0.038263
2.26,4.090397,0.040379
2.28,4.107157,0.042548
2.3,4.12435,0.04478
2.32,4.141979,0.047151
2.34,4.160048,0.049764
2.36,4.178563,0.052684
2.38,4.197543,0.055883
2.4,4.217013,0.059244
2.42,4.237002,0.062614
2.44,4.257538,0.065883
2.46,4.278645,0.069033
2.48,4.30034,0.072168
2.5,4.322639,0.075494
2.52,4.345555,0.079283
2.54,4.369108,0.08381
2.56,4.393322,0.089255
2.58,4.418241,0.095608
2.6,4.443933,0.102604
2.62,4.47048,0.109763
2.64,4.497971,0.116542
2.66,4.526484,0.122554
2.68,4.556076,0.12774
2.7,4.586784,0.132398
2.72,4.618635,0.137049
2.74,4.651658,0.142213
2.76,4.685899,0.148216
2.78,4.721428,0.155114
2.8,4.758347,0.162748
2.82,4.796774,0.170884
2.84,4.836841,0.179366
2.86,4.878669,0.188201
2.88,4.922379,0.197567
2.9,4.968099,0.207728
2.92,5.015986,0.218948
2.94,5.066246,0.231422
2.96,5.119135,0.245284
2.98,5.174942,0.260652
3,5.233973,0.27769
3.02,5.283623,0.291263
3.04,5.349157,0.312384
3.06,5.420031,0.328277
3.08,5.492357,0.355825
3.1,5.569931,0.387951
3.12,5.653765,0.416402
3.14,5.743644,0.455556
3.16,5.841632,0.504621
3.18,5.948053,0.561032
3.2,6.062313,0.629792
3.22,6.185082,0.713793
3.24,6.315822,0.814854
3.26,6.452259,0.944582
3.28,6.58566,1.10942
3.3,6.707423,1.319871
3.32,6.797879,1.576457
3.34,6.828897,1.868463
3.36,6.796337,2.167825
3.38,6.694872,2.455538
3.4,6.521469,2.704889
3.42,6.307228,2.880143
3.44,6.088281,2.980974
3.46,5.894018,3.022142
3.48,5.733582,3.026735
3.5,5.609885,3.014339
3.52,5.514896,2.999083
3.54,5.441729,2.989091
3.56,5.38341,2.983556
3.58,5.335638,2.982567
3.6,5.295645,2.986607
3.62,5.261458,2.994894
3.64,5.230965,3.006514
3.66,5.204033,3.020962
3.68,5.179128,3.038731
3.7,5.155519,3.057621
3.72,5.134503,3.078974
3.74,5.114572,3.102594
3.76,5.09542,3.127463
3.78,5.079038,3.154052
3.8,5.064952,3.181673
3.82,5.052265,3.211027
3.84,5.039634,3.241805
3.86,5.029332,3.275152
3.88,5.021565,3.309578
3.9,5.015997,3.346015
3.92,5.011968,3.385495
3.94,5.009022,3.429262
3.96,5.009804,3.476697
3.98,5.008662,3.528855
4,5.010561,3.586449
4.02,5.014589,3.649625
4.04,5.017603,3.720048
4.06,5.020142,3.798212
4.08,5.021021,3.884497
4.1,5.019598,3.979122
4.12,5.01238,4.085855
4.14,4.999447,4.203924
4.16,4.976984,4.334288
4.18,4.941187,4.479885
4.2,4.888131,4.639188
4.22,4.804722,4.810947
4.24,4.686401,4.987431
4.26,4.525643,5.156331
4.28,4.319586,5.299874
4.3,4.086989,5.39494
4.32,3.850046,5.438463
4.34,3.634461,5.435318
4.36,3.444757,5.413694
4.38,3.277118,5.380628
4.4,3.120716,5.343818
4.42,2.974492,5.304008
4.44,2.83395,5.257729
4.46,2.699822,5.206069
4.48,2.571961,5.14776
4.5,2.451728,5.081957
4.52,2.338957,5.011326
4.54,2.23435,4.933223
4.56,2.140905,4.84967
4.58,2.05927,4.764569
4.6,1.98794,4.678079
4.62,1.927445,4.590512
4.64,1.874504,4.506296
4.66,1.831341,4.426195
4.68,1.7939,4.350623
4.7,1.764111,4.2781
4.72,1.737105,4.211146
4.74,1.713181,4.148683
4.76,1.692027,4.088375
4.78,1.673269,4.031477
4.8,1.657678,3.979094
4.82,1.643197,3.928579
4.84,1.629133,3.880122
4.86,1.61756,3.835123
4.88,1.608418,3.788947
4.9,1.597039,3.749189
4.92,1.59086,3.709334
4.94,1.584275,3.670011
4.96,1.579555,3.632537
4.98,1.574947,3.597846
5,1.570446,3.564736
5.02,1.568903,3.53349
5.04,1.568293,3.503705
5.06,1.568816,3.476868
5.08,1.569679,3.450842
5.1,1.571073,3.429247
5.12,1.573773,3.40823
5.14,1.578294,3.389486
5.16,1.581562,3.375559
5.18,1.586143,3.363061
5.2,1.588696,3.353634
5.22,1.591887,3.34714
5.24,1.591396,3.343689
5.26,1.589871,3.34426
5.28,1.585492,3.346315
5.3,1.578551,3.352859
5.32,1.565548,3.358512
5.34,1.548208,3.363754
5.36,1.526105,3.367457
5.38,1.501384,3.368557
5.4,1.471762,3.366389
5.42,1.444687,3.359332
5.44,1.416263,3.349572
5.46,1.389256,3.334418
5.48,1.362049,3.318617
5.5,1.339974,3.301584
5.52,1.318614,3.285186
5.54,1.298399,3.267033
5.56,1.280673,3.245335
5.58,1.265249,3.227926
5.6,1.247473,3.206743
5.62,1.234714,3.190065
5.64,1.221844,3.169155
5.66,1.210693,3.150076
5.68,1.195086,3.134988
5.7,1.185885,3.119615
5.72,1.175117,3.102705
5.74,1.164583,3.086312
5.76,1.154788,3.072634
5.78,1.139105,3.06055
5.8,1.132544,3.044783
5.82,1.118802,3.025085
5.84,1.10974,3.01565
5.86,1.101407,3.00348
5.88,1.090318,2.98963
5.9,1.08037,2.97983
5.92,1.068704,2.960867
5.94,1.065495,2.939028
5.96,1.046977,2.942144
5.98,1.035222,2.928328
6,1.010136,2.909201
6.02,0.996564,2.900349
6.04,0.992848,2.89873
6.06,0.995253,2.901381
6.08,1.000048,2.905337
6.1,1.003498,2.907632
6.12,0.995349,2.899775
6.14,0.986361,2.891085
6.16,0.977483,2.882765
6.18,0.968997,2.875055
6.2,0.960517,2.867233
6.22,0.951942,2.858853
6.24,0.943327,2.850111
6.26,0.934694,2.841064
6.28,0.926031,2.83164
6.3,0.917295,2.821631
6.32,0.908392,2.810636
6.34,0.899436,2.799073
6.36,0.890479,2.787121
6.38,0.881561,2.774912
6.4,0.872712,2.762529
6.42,0.863986,2.750163
6.44,0.855373,2.737737
6.46,0.846873,2.725242
6.48,0.838507,2.712707
6.5,0.830316,2.700197
6.52,0.822381,2.687809
6.54,0.814625,2.675486
6.56,0.807015,2.663214
6.58,0.799531,2.650991
6.6,0.792171,2.638823
6.62,0.784927,2.626699
6.64,0.777781,2.61465
6.66,0.770721,2.602691
6.68,0.763729,2.590841
6.7,0.756779,2.579117
6.72,0.749825,2.567552
6.74,0.7429,2.556131
6.76,0.736023,2.544848
6.78,0.729193,2.533709
6.8,0.722385,2.522736
6.82,0.715539,2.511976
6.84,0.708745,2.501372
6.86,0.702052,2.490896
6.88,0.695495,2.480528
6.9,0.689094,2.470256
6.92,0.682873,2.460056
6.94,0.676866,2.449926
6.96,0.671088,2.439864
6.98,0.665588,2.429856
7,0.660451,2.419872
7.02,0.655869,2.409855
7.04,0.651638,2.399864
7.06,0.647666,2.389923
7.08,0.64389,2.38005
7.1,0.640275,2.370253
7.12,0.636749,2.360552
7.14,0.633314,2.350944
7.16,0.629956,2.341432
7.18,0.626648,2.332021
7.2,0.623357,2.322721
7.22,0.620043,2.313541
7.24,0.616695,2.304482
7.26,0.613293,2.295549
7.28,0.609816,2.286747
7.3,0.60624,2.27808
7.32,0.602543,2.269554
7.34,0.598702,2.261174
7.36,0.594693,2.252944
7.38,0.590493,2.244872
7.4,0.58608,2.23696
7.42,0.58143,2.229215
7.44,0.57652,2.221641
7.46,0.571327,2.214244
7.48,0.565828,2.207029
7.5,0.56,2.2
7.52,0.55382,2.193164
7.54,0.547265,2.186524
7.56,0.540312,2.180087
7.58,0.532938,2.173857
7.6,0.52512,2.16784
